1.113861386138614 429736.4338196317
1.2252475247524752 394735.5782706434
1.3366336633663367 379919.1781191309
1.448019801980198 346120.4675571548
1.5594059405940595 330617.0636144268
1.6707920792079207 295732.54368564923
1.7821782178217822 279233.77091859304
1.8935643564356437 270514.9610746241
2.004950495049505 258227.9767094222
2.116336633663366 258505.2282478402
2.227722772277228 249062.25439789792
2.339108910891089 246651.43983942416
2.4504950495049505 240380.09450108183
2.5618811881188117 240670.16559774088
2.6732673267326734 238088.85859002103
2.7846534653465347 227059.49886986596
2.896039603960396 227175.72658395773
3.0074257425742577 227415.4335990916
3.118811881188119 217226.53488819234
3.23019801980198 211225.8059655231
3.3415841584158414 208727.3760446908
3.452970297029703 206079.54700682257
3.5643564356435644 199759.60293160577
3.6757425742574257 191687.54258903573
3.7871287128712874 190973.95561361933
3.8985148514851486 186469.84194266738
4.00990099009901 187795.56671059888
4.121287128712871 184524.30671908028
4.232673267326732 185775.59756742665
4.344059405940594 183603.68872393025
4.455445544554456 179600.58525499547
4.566831683168317 179394.78339255694
4.678217821782178 173181.39966163787
4.78960396039604 173015.43753563357
4.900990099009901 172106.88621415905
5.012376237623762 171768.22273022824
5.123762376237623 172701.03045734175
5.235148514851486 173493.9317319333
5.346534653465347 174466.28718677457
5.457920792079208 185296.1169711821
5.569306930693069 180899.28115468877
5.680693069306931 181767.21021228275
5.792079207920792 179739.41447126053
5.903465346534653 178372.33019318347
6.014851485148515 175948.19998584295
6.126237623762377 165310.03416765272
6.237623762376238 164841.78984864734
6.349009900990099 159218.06156542146
6.46039603960396 158072.8727145016
6.571782178217822 153504.18593325623
6.683168316831683 150394.68551886728
6.794554455445545 148111.91978699088
6.905940594059406 146388.47281575424
7.017326732673268 145977.0194655469
7.128712871287129 141727.47978120527
7.24009900990099 140034.7924074984
7.351485148514851 138654.93182847535
7.462871287128713 136673.67374116986
7.574257425742575 133101.410196408
7.685643564356436 131700.54657784983
7.797029702970297 132086.3062926488
7.908415841584159 130980.61161016182
8.01980198019802 129874.76735648565
8.131188118811881 128752.81664406264
8.242574257425742 130735.221988205
8.353960396039604 131313.34665481315
8.465346534653465 132082.84073917184
8.576732673267326 133069.811067521
8.688118811881187 132467.93262046916
8.79950495049505 131080.4858171899
8.910891089108912 129325.87437563112
9.022277227722773 126853.47894996563
9.133663366336634 123474.33648420998
9.245049504950495 121173.54769112964
9.356435643564357 119577.39432618974
9.467821782178218 118545.98375924813
9.57920792079208 117079.52443256447
9.69059405940594 117957.12917288793
9.801980198019802 118335.9702098415
9.913366336633663 118759.43140171895
10.024752475247524 118984.88891645822
10.136138613861386 118560.9060747831
10.247524752475247 117998.6224486996
10.35891089108911 116551.65717554212
10.470297029702971 114892.84762544546
10.581683168316832 113541.50496094029
10.693069306930694 113570.51867061273
10.804455445544555 114280.26948295956
10.915841584158416 114510.49009187926
11.027227722772277 114002.50124210317
11.138613861386139 115607.12279693448
11.25 121547.89957466979
11.361386138613861 122073.67383237797
11.472772277227723 121005.45095028552
11.584158415841584 121547.69439904595
11.695544554455445 121093.26045710711
11.806930693069306 120414.59970252571
11.91831683168317 114558.69759627295
12.02970297029703 112350.5256771629
12.141089108910892 111890.03132868168
12.252475247524753 110764.26624199898
12.363861386138614 109930.97676733711
12.475247524752476 108845.92317308993
12.586633663366337 109034.67185298141
12.698019801980198 108767.47866229252
12.80940594059406 106896.65277033979
12.92079207920792 105273.00943931074
13.032178217821782 105309.33620771486
13.143564356435643 103472.85305081059
13.254950495049505 101604.90845947288
13.366336633663366 100759.1970971319
13.477722772277229 100076.55087124507
13.58910891089109 98789.53174477445
13.700495049504951 96584.45334250567
13.811881188118813 96181.00719787145
13.923267326732674 95832.40188907734
14.034653465346535 94965.09992596666
14.146039603960396 95038.98343773972
14.257425742574258 96021.0492256039
14.368811881188119 95877.11542393731
14.48019801980198 95277.44714151793
14.591584158415841 94645.59505560757
14.702970297029703 93937.01293702875
14.814356435643564 93863.28819258764
14.925742574257425 93025.59161636033
15.037128712871286 93252.71690300472
15.14851485148515 93108.05024938194
15.25990099009901 92258.32814001785
15.371287128712872 91622.37063165892
15.482673267326733 90907.25560698935
15.594059405940595 91383.13334073703
15.705445544554456 91005.62017961865
15.816831683168317 91058.27976437805
15.928217821782178 91134.22717436714
16.03960396039604 91705.51838059777
16.150990099009903 92384.8782844611
16.262376237623762 92208.18384260837
16.373762376237625 92614.92926228872
16.485148514851485 93061.90607531452
16.596534653465348 92591.79635982576
16.707920792079207 93259.71076549425
16.81930693069307 93452.4603363475
16.93069306930693 94777.75319073026
17.042079207920793 100055.11898918715
17.153465346534652 101234.07359712718
17.264851485148515 103072.80488182312
17.376237623762375 102264.1490098273
17.487623762376238 101825.76918143942
17.5990099009901 99997.48428517413
17.71039603960396 94619.5186798361
17.821782178217823 93134.86197156622
17.933168316831683 91070.22680337935
18.044554455445546 91023.33361661619
18.155940594059405 89658.16753721914
18.26732673267327 88328.9249883321
18.378712871287128 88065.65784131226
18.49009900990099 88221.62417194647
18.60148514851485 88601.28631338222
18.712871287128714 87649.82645885006
18.824257425742573 88626.67716288455
18.935643564356436 89242.80506656831
19.0470297029703 88612.88415578355
19.15841584158416 88462.67369216825
19.26980198019802 88320.86016836326
19.38118811881188 88819.68265251884
19.492574257425744 87704.97045036961
19.603960396039604 87271.40956422494
19.715346534653467 87955.11948739135
19.826732673267326 87522.89256397026
19.93811881188119 87792.12051092307
20.04950495049505 87787.11400001118
20.16089108910891 88606.32450423046
20.27227722772277 88568.78737035
20.383663366336634 87934.73464259958
20.495049504950494 87591.3661075855
20.606435643564357 87700.32810586102
20.71782178217822 87218.97769354208
20.82920792079208 87628.3246227926
20.940594059405942 88164.62279085064
21.051980198019802 89450.49867984225
21.163366336633665 89430.97009416182
21.274752475247524 90006.74359200707
21.386138613861387 91121.68876876133
21.497524752475247 90992.79480221568
21.60891089108911 91545.28183732562
21.72029702970297 92137.19773392618
21.831683168316832 93320.75569183176
21.943069306930692 94434.29716289918
22.054455445544555 94887.87101827578
22.165841584158414 97380.12927168098
22.277227722772277 98312.73325934313
22.38861386138614 100722.91955034842
22.5 103198.3384184358
22.611386138613863 107002.60895270418
22.722772277227723 114661.72875494565
22.834158415841586 129569.77294894439
22.945544554455445 138112.95005802927
23.056930693069308 142544.2347878449
23.168316831683168 145687.14746094926
23.27970297029703 144389.71488911158
23.39108910891089 138757.5451088972
23.502475247524753 124954.30198600248
23.613861386138613 117783.940305084
23.725247524752476 111281.30457842034
23.83663366336634 106324.70283430052
23.948019801980198 102995.01767250654
24.05940594059406 99355.92839102211
24.17079207920792 96307.33498806946
24.282178217821784 93016.16471534157
24.393564356435643 91101.71658171888
24.504950495049506 89604.73476678148
24.616336633663366 87554.95824498209
24.72772277227723 85935.69643291592
24.83910891089109 84655.54972985141
24.95049504950495 83215.77809261259
25.06188118811881 81262.54716846904
25.173267326732674 78925.06347076569
25.284653465346533 77247.53316244572
25.396039603960396 76825.20072980743
25.50742574257426 75225.59729017716
25.61881188118812 75316.25159452959
25.730198019801982 75088.18987947419
25.84158415841584 74955.3504522616
25.952970297029704 74768.98999700954
26.064356435643564 73180.39338573397
26.175742574257427 73060.16676354503
26.287128712871286 70746.70657034482
26.39851485148515 70374.33214584188
26.50990099009901 69298.922635349
26.621287128712872 68034.82599392081
26.73267326732673 67556.96054795293
26.844059405940595 67042.31851356047
26.955445544554458 67395.0931757782
27.066831683168317 66913.36935188445
27.17821782178218 66314.80785104165
27.28960396039604 66568.89688848019
27.400990099009903 66585.13908532933
27.512376237623762 66257.90109241489
27.623762376237625 65283.21725272106
27.735148514851485 65023.44606649553
27.846534653465348 65110.17790182724
27.957920792079207 64419.299263395296
28.06930693069307 63780.05166988467
28.18069306930693 63202.71201307907
28.292079207920793 63342.92634806985
28.403465346534652 63721.95269403076
28.514851485148515 63751.69601740096
28.62623762376238 65287.674915536765
28.737623762376238 65946.84149811835
28.8490099009901 65849.09753466737
28.96039603960396 65458.226221203186
29.071782178217823 64158.01094948326
29.183168316831683 63321.61214152826
29.294554455445546 61050.12392709706
29.405940594059405 59126.01636246761
29.51732673267327 58115.78097933367
29.628712871287128 57096.78712736828
29.74009900990099 56511.87659218678
29.85148514851485 55231.75376312916
29.962871287128714 54782.67553756217
30.074257425742573 54642.58983793297
30.185643564356436 54591.75569770746
30.2970297029703 53555.95610548446
30.40841584158416 52966.850299678044
30.51980198019802 52833.3579593241
30.63118811881188 52091.95263494076
30.742574257425744 51505.01875054309
30.853960396039604 50608.86600196684
30.965346534653467 50825.148812680265
31.076732673267326 50987.42685958329
31.18811881188119 50971.236556464646
31.29950495049505 50854.46922638179
31.41089108910891 50909.38683056104
31.52227722772277 51104.17818896565
31.633663366336634 50847.018466589485
31.745049504950497 50935.791937905444
31.856435643564357 50614.815928311786
31.96782178217822 50681.112559586545
32.07920792079208 50536.217227274465
32.19059405940594 50775.47309912449
32.301980198019805 50738.956397282716
32.413366336633665 50923.89844297118
32.524752475247524 50946.624372546496
32.636138613861384 50882.19973048988
32.74752475247525 50634.84161673471
32.85891089108911 50239.50305147535
32.97029702970297 49890.150453012415
33.08168316831683 49611.48449260536
33.193069306930695 49199.73571086716
33.304455445544555 49056.60469580447
33.415841584158414 48826.92086442818
33.52722772277228 48933.24397139264
33.63861386138614 49343.98495341739
33.75 49233.57666692198
33.86138613861386 49341.874027882615
33.972772277227726 49589.10702448895
34.084158415841586 49917.947685627856
34.195544554455445 50204.59588160948
34.306930693069305 51090.738759351785
34.41831683168317 53243.200273237424
34.52970297029703 54929.01426891246
34.64108910891089 55510.15905829321
34.75247524752475 55782.067750679336
34.863861386138616 55421.22442192468
34.975247524752476 54257.92884336944
35.086633663366335 52323.89135304903
35.1980198019802 50681.71035250054
35.30940594059406 49335.506612649784
35.42079207920792 48865.604541885485
35.53217821782178 48345.005140650166
35.64356435643565 47815.35481549979
35.754950495049506 47230.53389716962
35.866336633663366 46994.4535702169
35.977722772277225 47270.679972715596
36.08910891089109 46881.38107377839
36.20049504950495 46411.46140086102
36.31188118811881 46377.95821029278
36.42326732673267 45977.55137682818
36.53465346534654 45919.384164627925
36.646039603960396 45733.19651590948
36.757425742574256 45862.33219571556
36.86881188118812 46202.143561181576
36.98019801980198 46066.96292734422
37.09158415841584 46175.8735900635
37.2029702970297 45749.74929354308
37.31435643564357 45406.19964687833
37.42574257425743 44913.860932393305
37.53712871287129 44560.346513757
37.648514851485146 44300.58127837785
37.75990099009901 44304.77238603683
37.87128712871287 44190.63379595093
37.98267326732673 44095.16303567721
38.0940594059406 43957.65002555922
38.20544554455446 43970.98279869822
38.31683168316832 43809.2951429972
38.42821782178218 43185.35619924026
38.53960396039604 43209.510418367114
38.6509900990099 43032.58877434354
38.76237623762376 42781.49643312118
38.87376237623762 42506.522146504736
38.98514851485149 42322.0500718679
39.09653465346535 42276.93669348528
39.20792079207921 42032.48522196906
39.31930693069307 42028.22190358723
39.43069306930693 41976.26389797011
39.54207920792079 42158.85416968918
39.65346534653465 42401.650083635475
39.76485148514852 42723.848025485684
39.87623762376238 43492.70280041444
39.98762376237624 43939.527929600066
40.0990099009901 44950.93794029331
40.210396039603964 45693.26971876127
40.32178217821782 46404.851325663905
40.43316831683168 46543.94980500742
40.54455445544554 46198.95577482814
40.65594059405941 46170.72502721325
40.76732673267327 45429.90422484712
40.87871287128713 44712.947523013485
40.99009900990099 43834.52714896946
41.101485148514854 43325.539119035595
41.21287128712871 42922.50236113467
41.32425742574257 42358.00963143263
41.43564356435644 42174.69105076458
41.5470297029703 41872.51979157223
41.65841584158416 41925.10155630255
41.76980198019802 41817.47472466128
41.881188118811885 41786.6844688467
41.992574257425744 41683.10690558224
42.103960396039604 41345.26091021682
42.21534653465346 41291.06875933587
42.32673267326733 41111.11246300641
42.43811881188119 41126.57573317923
42.54950495049505 40852.31959565581
42.66089108910891 40722.71369026577
42.772277227722775 40650.24154475715
42.883663366336634 40761.749782060535
42.995049504950494 40409.26242333642
43.10643564356436 40879.81728127779
43.21782178217822 40913.53979458129
43.32920792079208 41011.13168195155
43.44059405940594 41074.44167274739
43.551980198019805 41000.907384988124
43.663366336633665 41620.89193362557
43.774752475247524 41309.569878166534
43.886138613861384 41402.669922597954
43.99752475247525 41456.30567655087
44.10891089108911 41738.970249887665
44.22029702970297 41620.23073477587
44.33168316831683 41502.76501649955
44.443069306930695 41477.86372934624
44.554455445544555 41707.18589413873
44.665841584158414 41924.867156054424
44.77722772277228 42350.85804212364
44.88861386138614 42744.2263360156
45.0 43214.3376296971
45.11138613861386 43737.12570136619
45.222772277227726 44519.33048425499
45.334158415841586 45130.38598233719
45.445544554455445 45486.555420357305
45.556930693069305 46192.210455506945
45.66831683168317 46993.849419273894
45.77970297029703 48709.64983975759
45.89108910891089 51735.084477621574
46.00247524752476 55984.191931011395
46.113861386138616 59518.43513110702
46.225247524752476 62013.9979709881
46.336633663366335 63353.200033636014
46.4480198019802 63096.39904624892
46.55940594059406 61320.212951439564
46.67079207920792 57591.11075938382
46.78217821782178 54359.806251949165
46.89356435643565 51660.74839528497
47.004950495049506 49645.47168893789
47.116336633663366 48203.85224583161
47.227722772277225 46480.98179036292
47.33910891089109 45428.777314774146
47.45049504950495 44450.60712226063
47.56188118811881 43732.2514170098
47.67326732673268 43183.36425334977
47.78465346534654 42368.98113690212
47.896039603960396 42052.74093283327
48.007425742574256 41697.68325843125
48.11881188118812 41466.74638780658
48.23019801980198 41093.05998151324
48.34158415841584 40557.38668690692
48.4529702970297 40459.1713908427
48.56435643564357 39774.35252523541
48.67574257425743 39133.23610761112
48.78712871287129 38733.61545449053
48.898514851485146 38560.70554784209
49.00990099009901 38632.50613105455
49.12128712871287 38228.772700535716
49.23267326732673 37962.40023228635
49.3440594059406 37719.85355190009
49.45544554455446 37524.705681070016
49.56683168316832 37184.019882810906
49.67821782178218 36627.96722670109
49.78960396039604 36159.482769396796
49.9009900990099 35965.10912541895
50.01237623762376 35975.32067666469
50.12376237623762 35740.40670029932
50.23514851485149 35563.31581547499
50.34653465346535 35329.03956216552
50.45792079207921 35435.27231555778
50.56930693069307 35487.14450157689
50.68069306930693 35459.773880901594
50.79207920792079 35398.28609964839
50.90346534653465 35502.154022757975
51.01485148514852 35773.578965824396
51.12623762376238 35986.94188742783
51.23762376237624 36222.12020087969
51.3490099009901 36334.716192220316
51.460396039603964 36781.37308659507
51.57178217821782 36920.783362545124
51.68316831683168 37294.42817930676
51.79455445544554 37960.609901669515
51.90594059405941 38229.34544070202
52.01732673267327 37907.21699442722
52.12871287128713 37419.06584685448
52.24009900990099 37202.87013518052
52.351485148514854 36446.58251061123
52.46287128712871 35274.91937333259
52.57425742574257 34581.20617198652
52.68564356435644 34430.92964877245
52.7970297029703 34079.946980781155
52.90841584158416 33611.75821201659
53.01980198019802 33417.786555320985
53.131188118811885 33201.08704722333
53.242574257425744 32784.663680506776
53.353960396039604 32492.85214485499
53.46534653465346 32415.370926243555
53.57673267326733 32445.42012794808
53.68811881188119 32257.54474764418
53.79950495049505 32277.238212914504
53.910891089108915 32480.295540011597
54.022277227722775 32473.455646720908
54.133663366336634 32675.570715199825
54.245049504950494 32659.5973409373
54.35643564356436 32755.147849391873
54.46782178217822 32852.27577347532
54.57920792079208 32786.41226475184
54.69059405940594 33019.33546755792
54.801980198019805 32794.82796601084
54.913366336633665 32699.913303029425
55.024752475247524 32784.62594522569
55.136138613861384 32709.151900482877
55.24752475247525 32874.91678626217
55.35891089108911 32751.564232227614
55.47029702970297 32626.802375548137
55.581683168316836 32693.151776621995
55.693069306930695 32526.33771011052
55.804455445544555 32386.936893970746
55.915841584158414 32407.15876527941
56.02722772277228 32353.171629993794
56.13861386138614 32433.074550616795
56.25 32631.839927191795
56.36138613861386 32930.83447337742
56.472772277227726 33349.765711473774
56.584158415841586 33511.787061077375
56.695544554455445 33914.30602983595
56.806930693069305 34677.40079228709
56.91831683168317 35089.37598071567
57.02970297029703 35494.67539508406
57.14108910891089 36078.21155647126
57.25247524752476 36507.44764330307
57.363861386138616 37587.963515955824
57.475247524752476 38452.23131605407
57.586633663366335 39835.09002124858
57.6980198019802 41089.37854831646
57.80940594059406 41495.81228753202
57.92079207920792 41550.857098343484
58.03217821782178 40655.134307486245
58.14356435643565 39455.07637633098
58.254950495049506 37629.53486825685
58.366336633663366 35956.55953466148
58.477722772277225 34957.42675697229
58.58910891089109 34154.56238574815
58.70049504950495 33672.14953116732
58.81188118811881 33221.04780255283
58.92326732673268 33159.89296555784
59.03465346534654 32848.631330953795
59.146039603960396 32497.734863418853
59.257425742574256 32304.242077380353
59.36881188118812 32051.006136072094
59.48019801980198 31974.723229631578
59.59158415841584 31653.627888669835
59.7029702970297 31523.349305487587
59.81435643564357 31261.391470864
59.92574257425743 31142.508715330983
60.03712871287129 30956.671415954763
60.148514851485146 30652.736782623986
60.25990099009901 30594.40130403935
60.37128712871287 30383.02101252103
60.48267326732673 30213.140801695805
60.5940594059406 30197.628367962352
60.70544554455446 29990.84205357523
60.81683168316832 30108.725915899093
60.92821782178218 29980.190692394586
61.03960396039604 30057.225920499674
61.1509900990099 30186.990978445592
61.26237623762376 30112.98447202273
61.37376237623762 30356.766119637243
61.48514851485149 30138.95235883379
61.59653465346535 30312.119825667593
61.70792079207921 30285.427075186515
61.819306930693074 30308.12411978822
61.93069306930693 30233.440802564684
62.04207920792079 30088.1676814813
62.15346534653465 30120.05684756521
62.26485148514852 29968.951909148356
62.37623762376238 29854.349777743362
62.48762376237624 29807.612473027537
62.5990099009901 29588.00775123715
62.710396039603964 29618.28992866622
62.82178217821782 29788.31551433816
62.93316831683168 29868.013493578586
63.04455445544554 30008.255267619566
63.15594059405941 30133.275340501168
63.26732673267327 30635.04567326198
63.37871287128713 30226.480987624014
63.490099009900995 29067.190420886625
63.601485148514854 27702.11678669384
63.71287128712871 26188.782433013657
63.82425742574257 24534.82245538003
63.93564356435644 22565.858947368873
64.04702970297029 21355.262828341747
64.15841584158416 20902.240717139885
64.26980198019803 20525.191562294414
64.38118811881188 20293.74036178803
64.49257425742574 19971.68402179494
64.60396039603961 19673.160970296918
64.71534653465346 19454.12996885626
64.82673267326733 19271.41823572093
64.93811881188118 19200.92566640146
65.04950495049505 19130.016266894927
65.16089108910892 19237.347862985465
65.27227722772277 19287.389310938615
65.38366336633663 19213.540628047445
65.4950495049505 19086.317652353748
65.60643564356435 18918.77860189649
65.71782178217822 18787.158055760556
65.82920792079209 18590.918116656398
65.94059405940594 18398.06415187852
66.0519801980198 18264.7731253345
66.16336633663366 18242.221704649553
66.27475247524752 18186.947804436146
66.38613861386139 18111.279407282425
66.49752475247524 18040.648029107648
66.60891089108911 18065.79921886141
66.72029702970298 18041.63785709944
66.83168316831683 17949.10108501272
66.9430693069307 17997.18841716843
67.05445544554456 17969.046811431897
67.16584158415841 17923.612640822987
67.27722772277228 17829.06626368065
67.38861386138613 17771.836431622163
67.5 17679.062212467376
67.61138613861387 17440.37899705583
67.72277227722772 17284.338080319365
67.83415841584159 17174.136882053106
67.94554455445545 17029.21254860604
68.0569306930693 16936.310312853057
68.16831683168317 16852.593712441714
68.27970297029704 16920.160154382324
68.39108910891089 16869.457876744895
68.50247524752476 16899.488122492963
68.61386138613861 16954.928106260617
68.72524752475248 16977.170091112323
68.83663366336634 17032.460242750956
68.9480198019802 16982.13007588121
69.05940594059406 16952.72478787364
69.17079207920793 16946.337990136464
69.28217821782178 16987.795248442144
69.39356435643565 16916.006183112986
69.5049504950495 16911.397697074262
69.61633663366337 16958.245244503774
69.72772277227723 16972.575935552843
69.83910891089108 16847.67303630036
69.95049504950495 16679.37741166454
70.06188118811882 16611.49211543981
70.17326732673267 16528.856138350846
70.28465346534654 16424.6497216556
70.3960396039604 16386.273402187457
70.50742574257426 16287.271305698667
70.61881188118812 16329.968083004052
70.73019801980197 16419.19141358371
70.84158415841584 16399.043334555066
70.95297029702971 16449.54562920376
71.06435643564356 16419.408086495674
71.17574257425743 16439.378545942134
71.2871287128713 16468.485701818732
71.39851485148515 16400.69819062021
71.50990099009901 16398.853416623606
71.62128712871288 16373.793901050802
71.73267326732673 16375.83503913749
71.8440594059406 16467.558816183544
71.95544554455445 16405.17410784155
72.06683168316832 16353.113509878807
72.17821782178218 16223.631201512562
72.28960396039604 16069.828944257084
72.4009900990099 15918.530245168231
72.51237623762377 15745.47886098468
72.62376237623762 15666.600003792175
72.73514851485149 15542.95480769634
72.84653465346534 15502.862667081235
72.95792079207921 15466.734816914905
73.06930693069307 15435.256490504053
73.18069306930693 15485.883176425805
73.29207920792079 15408.761369083455
73.40346534653466 15374.849912449576
73.51485148514851 15344.701580357696
73.62623762376238 15314.695263741614
73.73762376237624 15412.581462987173
73.8490099009901 15467.812599596966
73.96039603960396 15527.0115183676
74.07178217821782 15481.663821750664
74.18316831683168 15359.37654596838
74.29455445544555 15320.81536127891
74.4059405940594 15078.82295375092
74.51732673267327 14817.363870893003
74.62871287128714 14750.40447934814
74.74009900990099 14784.317135437084
74.85148514851485 14726.841685434945
74.96287128712872 14718.417837831865
75.07425742574257 14822.402588845442
75.18564356435644 14822.314736492583
75.29702970297029 14729.071437672974
75.40841584158416 14737.673034915888
75.51980198019803 14858.947964788207
75.63118811881188 14929.644593868634
75.74257425742574 14922.641763883272
75.85396039603961 14906.463241186562
75.96534653465346 14850.552109897104
76.07673267326733 14798.206241321588
76.1881188118812 14665.819416283417
76.29950495049505 14427.02752566737
76.41089108910892 14370.24325340831
76.52227722772277 14431.259308626562
76.63366336633663 14425.403698254337
76.7450495049505 14415.095207059765
76.85643564356435 14491.073204952614
76.96782178217822 14561.332671737724
77.07920792079209 14548.487152976957
77.19059405940594 14495.41626156571
77.3019801980198 14586.419604350702
77.41336633663366 14576.226074488068
77.52475247524752 14578.65346704096
77.63613861386139 14611.443698935145
77.74752475247524 14750.606097143458
77.85891089108911 14764.802516000094
77.97029702970298 14739.982685615129
78.08168316831683 14800.458575718812
78.1930693069307 14719.209254198988
78.30445544554456 14855.284393787153
78.41584158415841 14808.377483242806
78.52722772277228 14958.272699187786
78.63861386138613 15004.754720025614
78.75 14977.936751845224
78.86138613861387 15151.755743322994
78.97277227722772 15135.415088090504
79.08415841584159 15146.52890855758
79.19554455445545 15185.098723525698
79.3069306930693 15285.580270981962
79.41831683168317 15312.375811842927
79.52970297029704 15329.686618937298
79.64108910891089 15264.206293640493
79.75247524752476 15278.698559327524
79.86386138613861 14972.933334231879
79.97524752475248 14628.526394534918
80.08663366336634 14377.071255831363
80.1980198019802 13999.77251214038
80.30940594059406 13683.841661063163
80.42079207920793 13415.90278256116
80.53217821782178 13550.883460821622
80.64356435643565 13617.183767614575
80.7549504950495 13729.007656719772
80.86633663366337 13971.349222458803
80.97772277227723 14095.813203089981
81.08910891089108 13969.987702127439
81.20049504950495 13747.732616070642
81.31188118811882 13642.09186909628
81.42326732673267 13429.137518892205
81.53465346534654 13144.228860193598
81.6460396039604 13046.281816944838
81.75742574257426 13127.463583489762
81.86881188118812 13173.44802586668
81.98019801980197 13255.801446189917
82.09158415841584 13421.033262324941
82.20297029702971 13432.476032941968
82.31435643564356 13309.599043176462
82.42574257425743 13363.631317241032
82.5371287128713 13337.516375447316
82.64851485148515 13251.34312645676
82.75990099009901 13206.485962252626
82.87128712871288 13328.609200324132
82.98267326732673 13652.667853795992
83.0940594059406 13547.218600395949
83.20544554455445 13550.532326225319
83.31683168316832 13541.754610088563
83.42821782178218 13578.342923942686
83.53960396039604 13548.181071481436
83.6509900990099 13316.22287417293
83.76237623762377 13513.122170605951
83.87376237623762 13523.483765822737
83.98514851485149 13438.639806122459
84.09653465346535 13181.120708230334
84.20792079207921 13134.621304992723
84.31930693069307 13181.043287564802
84.43069306930693 12920.773441959127
84.54207920792079 12788.40675792552
84.65346534653466 13088.956768085176
84.76485148514851 13246.611968842844
84.87623762376238 13068.836791000913
84.98762376237624 12969.797391598906
85.0990099009901 12965.340312539176
85.21039603960396 12844.926985766575
85.32178217821782 12388.786250497618
85.43316831683168 12374.24503215533
85.54455445544555 12601.899245753433
85.6559405940594 12717.076071081805
85.76732673267327 12784.96485050759
85.87871287128714 12921.221614963782
85.99009900990099 13097.989532484675
86.10148514851485 13283.947500981401
86.21287128712872 13449.13306351673
86.32425742574257 13601.778569323205
86.43564356435644 13323.560094702787
86.54702970297029 13254.330978967853
86.65841584158416 12967.667142401478
86.76980198019803 12474.9627601799
86.88118811881188 11852.091196686137
86.99257425742574 11298.384776763876
87.10396039603961 11190.367319745783
87.21534653465346 11050.016616352412
87.32673267326733 11226.477582031284
87.4381188118812 11128.699507892805
87.54950495049505 11251.301383574697
87.66089108910892 11326.752226672315
87.77227722772277 11458.394201593306
87.88366336633663 11414.09948312404
87.9950495049505 11562.985985473964
88.10643564356435 11744.235418285836
88.21782178217822 11592.445741258452
88.32920792079209 11672.976755444037
88.44059405940594 11607.38080565264
88.5519801980198 11781.110556408818
88.66336633663366 11891.758943423878
88.77475247524752 11861.247009459194
88.88613861386139 11876.041902573214
88.99752475247524 12095.892723497183
89.10891089108911 12580.572950717695
89.22029702970298 12448.823878164705
89.33168316831683 11772.943245037623
89.4430693069307 11243.118232902436
89.55445544554456 10868.615060047368
89.66584158415841 10277.198753802782
89.77722772277228 8621.832970216263
89.88861386138613 8140.398735388448
